               Theta              Radial            Vertical
          0.00110165          0.00110165             1.66998
          0.00523614          0.00523611             1.66997
           0.0106305           0.0106303             1.66992
            0.014765           0.0147644             1.66987
           0.0180699           0.0180689             1.66982
           0.0263389           0.0263359             1.66963
           0.0371276           0.0371191             1.66929
           0.0453966            0.045381             1.66895
           0.0498032           0.0497826             1.66874
           0.0580722           0.0580395             1.66829
           0.0688609           0.0688065             1.66761
           0.0771298           0.0770534             1.66701
           0.0815364           0.0814461             1.66666
           0.0898054           0.0896848             1.66595
            0.100594            0.100425             1.66492
            0.108863            0.108648             1.66406
             0.11327            0.113028             1.66357
            0.121539             0.12124              1.6626
            0.132327            0.131942             1.66124
            0.140596            0.140134             1.66011
            0.145003            0.144495             1.65949
            0.153272            0.152673             1.65826
            0.164061            0.163326             1.65655
             0.17233            0.171478             1.65517
            0.176736            0.175818              1.6544
            0.185005            0.183952             1.65292
            0.195794            0.194545             1.65087
            0.204063             0.20265             1.64923
            0.208469            0.206963             1.64833
            0.216738            0.215046             1.64658
            0.227527            0.225569             1.64421
            0.235796            0.233617             1.64231
            0.240203              0.2379             1.64127
            0.248472            0.245923             1.63927
             0.25926            0.256366             1.63656
            0.267529             0.26435             1.63441
            0.271936            0.268597             1.63323
            0.280205            0.276553             1.63098
            0.290994            0.286904             1.62794
            0.299263            0.294816             1.62553
            0.303669            0.299024             1.62423
            0.311938            0.306904             1.62172
            0.322727            0.317154             1.61835
            0.330996            0.324985              1.6157
            0.335403            0.329149             1.61426
            0.343671            0.336946              1.6115
             0.35446            0.347084             1.60781
            0.362729            0.354827             1.60491
            0.367136            0.358944             1.60334
            0.375405            0.366649             1.60034
            0.386193            0.376665             1.59633
            0.394462            0.384312             1.59318
            0.398869            0.388376             1.59148
            0.407138            0.395983             1.58824
            0.417927            0.405866             1.58391
            0.426196             0.41341             1.58053
            0.430602            0.417418             1.57869
            0.438871            0.424918             1.57521
             0.44966            0.434659             1.57058
            0.457929            0.442091             1.56695
            0.462336             0.44604             1.56499
            0.470605            0.453425             1.56127
            0.481393            0.463015             1.55633
            0.489662            0.470328             1.55247
            0.494069            0.474212             1.55039
            0.502338            0.481476             1.54644
            0.513126            0.490903             1.54119
            0.521395            0.498091             1.53711
            0.525802            0.501907              1.5349
            0.534071            0.509042             1.53072
             0.54486            0.518298             1.52518
            0.553129            0.525352             1.52087
            0.557535            0.529096             1.51854
            0.565804            0.536095             1.51414
            0.576593            0.545171             1.50831
            0.584862            0.552084             1.50377
            0.589269            0.555753             1.50133
            0.597538            0.562608              1.4967
            0.608326            0.571495             1.49059
            0.616595            0.578261             1.48583
            0.621002             0.58185             1.48328
            0.629271            0.588555             1.47844
             0.64006            0.597243             1.47204
            0.648329            0.603855             1.46707
            0.652735            0.607362             1.46441
            0.661004             0.61391             1.45936
            0.671793             0.62239             1.45269
            0.680062            0.628841             1.44751
            0.684468            0.632261             1.44474
            0.692737            0.638646             1.43948
            0.703526            0.646911             1.43255
            0.711795            0.653194             1.42717
            0.716202            0.656524             1.42429
            0.724471            0.662739             1.41883
            0.735259            0.670779             1.41164
            0.743528            0.676889             1.40606
            0.747935            0.680126             1.40308
            0.756204            0.686165             1.39743
            0.766993            0.693973             1.38998
            0.775262            0.699903             1.38422
            0.779668            0.703043             1.38113
            0.787937              0.7089             1.37529
            0.798726            0.716468              1.3676
            0.806995            0.722212             1.36165
            0.811401            0.725253             1.35846
             0.81967            0.730921             1.35244
            0.830459            0.738241             1.34452
            0.838728            0.743794             1.33839
            0.843135            0.746732             1.33511
            0.851404            0.752206             1.32891
            0.862192            0.759271             1.32075
            0.870461            0.764626             1.31445
            0.874868            0.767459             1.31108
            0.883137            0.772734             1.30471
            0.893926            0.779537             1.29634
            0.902195            0.784689             1.28987
            0.906601            0.787413             1.28641
             0.91487            0.792483             1.27987
            0.925659            0.799017             1.27129
            0.933928            0.803962             1.26466
            0.938334            0.806575             1.26111
            0.946603            0.811435             1.25442
            0.957392            0.817693             1.24563
            0.965661            0.822425             1.23885
            0.970068            0.824924             1.23522
            0.978337             0.82957             1.22838
            0.989125            0.835546              1.2194
            0.997394             0.84006             1.21247
              1.0018            0.842443             1.20877
             1.01007            0.846869             1.20178
             1.02086            0.852557             1.19261
             1.02913             0.85685             1.18555
             1.03353            0.859113             1.18177
              1.0418            0.863316             1.17464
             1.05259             0.86871              1.1653
             1.06086            0.872776              1.1581
             1.06527            0.874918             1.15425
             1.07354            0.878893               1.147
             1.08433            0.883988             1.13749
             1.09259            0.887824             1.13016
               1.097            0.889843             1.12625
             1.10527            0.893585             1.11887
             1.11606            0.898376             1.10921
             1.12433            0.901977             1.10176
             1.12873            0.903871             1.09778
               1.137            0.907378              1.0903
             1.14779             0.91186             1.08048
             1.15606            0.915223             1.07293
             1.16047             0.91699             1.06889
             1.16874            0.920257              1.0613
             1.17952            0.924425             1.05134
             1.18779            0.927547             1.04369
              1.1922            0.929185              1.0396
             1.20047            0.932209              1.0319
             1.21126            0.936059             1.02182
             1.21953            0.938937             1.01407
             1.22393            0.940444             1.00993
              1.2322            0.943223             1.00214
             1.24299            0.946751            0.991946
             1.25126            0.949381            0.984106
             1.25567            0.950756             0.97992
             1.26394            0.953287            0.972047
             1.27472             0.95649            0.961745
             1.28299             0.95887            0.953826
              1.2874            0.960111            0.949598
             1.29567            0.962391            0.941649
             1.30646            0.965266            0.931251
             1.31473            0.967393             0.92326
             1.31913              0.9685            0.918995
              1.3274            0.970526            0.910978
             1.33819            0.973069            0.900493
             1.34646            0.974942            0.892439
             1.35087            0.975913            0.888141
             1.35914            0.977683            0.880064
             1.36992            0.979893            0.869504
             1.37819            0.981509            0.861394
              1.3826            0.982343            0.857067
             1.39087            0.983857            0.848938
             1.40166             0.98573            0.838313
             1.40993            0.987088            0.830157
             1.41433            0.987785            0.825806
              1.4226            0.989039            0.817632
             1.43339            0.990575            0.806953
             1.44166            0.991673            0.798758
             1.44607            0.992231            0.794387
             1.45434            0.993226            0.786178
             1.46512            0.994422            0.775456
             1.47339             0.99526            0.767229
              1.4778            0.995679            0.762843
             1.48607            0.996413            0.754606
             1.49686            0.997268            0.743852
             1.50513            0.997845            0.735603
             1.50953            0.998124            0.731205
              1.5178            0.998596             0.72295
             1.52859            0.999109            0.712173
             1.53686            0.999424             0.70391
             1.54127            0.999564            0.699506
             1.54954            0.999774            0.691239
             1.56032            0.999945            0.680452
             1.56859            0.999998            0.672183
               1.573            0.999998            0.667777
             1.58127            0.999945            0.659508
             1.59206            0.999774            0.648721
             1.60033            0.999564            0.640454
             1.60473            0.999424             0.63605
               1.613            0.999109            0.627787
             1.62379            0.998596            0.617011
             1.63206            0.998124            0.608755
             1.63647            0.997845            0.604357
             1.64474            0.997268            0.596109
             1.65552            0.996413            0.585354
             1.66379            0.995679            0.577118
              1.6682             0.99526            0.572731
             1.67647            0.994422            0.564505
             1.68726            0.993226            0.553782
             1.69553            0.992231            0.545574
             1.69993            0.991673            0.541202
              1.7082            0.990575            0.533007
             1.71899            0.989039            0.522328
             1.72726            0.987785            0.514155
             1.73167            0.987088            0.509803
             1.73993             0.98573            0.501647
             1.75072            0.983857            0.491022
             1.75899            0.982343            0.482893
              1.7634            0.981509            0.478566
             1.77167            0.979893            0.470456
             1.78246            0.977683            0.459896
             1.79073            0.975913            0.451819
             1.79513            0.974942            0.447521
              1.8034            0.973069            0.439467
             1.81419            0.970526            0.428982
             1.82246              0.9685            0.420965
             1.82687            0.967393              0.4167
             1.83513            0.965266            0.408709
             1.84592            0.962391            0.398311
             1.85419            0.960111            0.390362
              1.8586             0.95887            0.386134
             1.86687             0.95649            0.378215
             1.87766            0.953287            0.367913
             1.88593            0.950756            0.360041
             1.89033            0.949381            0.355854
              1.8986            0.946751            0.348015
             1.90939            0.943223            0.337819
             1.91766            0.940444            0.330031
             1.92207            0.938937             0.32589
             1.93033            0.936059            0.318138
             1.94112            0.932209             0.30806
             1.94939            0.929185            0.300364
              1.9538            0.927547            0.296273
             1.96207            0.924425            0.288616
             1.97286            0.920257            0.278665
             1.98113             0.91699            0.271069
             1.98553            0.915223            0.267032
              1.9938             0.91186            0.259478
             2.00459            0.907378            0.249664
             2.01286            0.903871            0.242176
             2.01727            0.901977            0.238197
             2.02553            0.898376            0.230753
             2.03632            0.893585            0.221087
             2.04459            0.889843            0.213713
               2.049            0.887824            0.209796
             2.05727            0.883988            0.202471
             2.06806            0.878893            0.192961
             2.07633            0.874918             0.18571
             2.08073            0.872776            0.181859
               2.089             0.86871            0.174659
             2.09979            0.863316            0.165316
             2.10806            0.859113            0.158194
             2.11247             0.85685            0.154414
             2.12073            0.852557            0.147346
             2.13152            0.846869            0.138179
             2.13979            0.842443            0.131194
              2.1442             0.84006            0.127487
             2.15247            0.835546            0.120559
             2.16326             0.82957            0.111577
             2.17152            0.824924            0.104736
             2.17593            0.822425            0.101107
              2.1842            0.817693           0.0943257
             2.19499            0.811435           0.0855376
             2.20326            0.806575           0.0788479
             2.20766            0.803962           0.0752994
             2.21593            0.799017           0.0686718
             2.22672            0.792483           0.0600866
             2.23499            0.787413           0.0535545
              2.2394            0.784689           0.0500907
             2.24767            0.779537           0.0436234
             2.25846            0.772734           0.0352498
             2.26672            0.767459           0.0288819
             2.27113            0.764626           0.0255062
              2.2794            0.759271           0.0192057
             2.29019            0.752206           0.0110521
             2.29846            0.746732          0.00485477
             2.30286            0.743794          0.00157069
             2.31113            0.738241          -0.0045568
             2.32192            0.730921          -0.0124821
             2.33019            0.725253          -0.0185026
              2.3346            0.722212          -0.0216918
             2.34287            0.716468          -0.0276401
             2.35366              0.7089          -0.0353291
             2.36192            0.703043          -0.0411668
             2.36633            0.699903          -0.0442579
              2.3746            0.693973          -0.0500209
             2.38539            0.686165          -0.0574659
             2.39366            0.680126          -0.0631149
             2.39806            0.676889          -0.0661048
             2.40633            0.670779          -0.0716767
             2.41712            0.662739          -0.0788703
             2.42539            0.656524          -0.0843248
              2.4298            0.653194          -0.0872105
             2.43807            0.646911          -0.0925858
             2.44886            0.638646          -0.0995206
             2.45712            0.632261           -0.104775
             2.46153            0.628841           -0.107554
              2.4698             0.62239           -0.112727
             2.48059             0.61391           -0.119396
             2.48886            0.607362           -0.124445
             2.49326            0.603855           -0.127114
             2.50153            0.597243            -0.13208
             2.51232            0.588555           -0.138477
             2.52059             0.58185           -0.143316
               2.525            0.578261           -0.145872
             2.53327            0.571495           -0.150626
             2.54406            0.562608           -0.156743
             2.55232            0.555753           -0.161367
             2.55673            0.552084           -0.163808
               2.565            0.545171           -0.168345
