               Theta              Radial            Vertical
          0.00110165          0.00110165             3.98549
          0.00523614          0.00523611             3.98548
           0.0106305           0.0106303             3.98544
            0.014765           0.0147644             3.98538
           0.0180699           0.0180689             3.98533
           0.0263389           0.0263359             3.98515
           0.0371276           0.0371191              3.9848
           0.0453966            0.045381             3.98446
           0.0498032           0.0497826             3.98425
           0.0580722           0.0580395             3.98381
           0.0688609           0.0688065             3.98312
           0.0771298           0.0770534             3.98252
           0.0815364           0.0814461             3.98217
           0.0898054           0.0896848             3.98146
            0.100594            0.100425             3.98044
            0.108863            0.108648             3.97957
             0.11327            0.113028             3.97909
            0.121539             0.12124             3.97812
            0.132327            0.131942             3.97675
            0.140596            0.140134             3.97563
            0.145003            0.144495               3.975
            0.153272            0.152673             3.97377
            0.164061            0.163326             3.97207
             0.17233            0.171478             3.97068
            0.176736            0.175818             3.96992
            0.185005            0.183952             3.96843
            0.195794            0.194545             3.96639
            0.204063             0.20265             3.96474
            0.208469            0.206963             3.96384
            0.216738            0.215046              3.9621
            0.227527            0.225569             3.95972
            0.235796            0.233617             3.95782
            0.240203              0.2379             3.95678
            0.248472            0.245923             3.95478
             0.25926            0.256366             3.95207
            0.267529             0.26435             3.94992
            0.271936            0.268597             3.94875
            0.280205            0.276553             3.94649
            0.290994            0.286904             3.94345
            0.299263            0.294816             3.94105
            0.303669            0.299024             3.93974
            0.311938            0.306904             3.93723
            0.322727            0.317154             3.93387
            0.330996            0.324985             3.93121
            0.335403            0.329149             3.92977
            0.343671            0.336946             3.92702
             0.35446            0.347084             3.92333
            0.362729            0.354827             3.92043
            0.367136            0.358944             3.91885
            0.375405            0.366649             3.91585
            0.386193            0.376665             3.91184
            0.394462            0.384312              3.9087
            0.398869            0.388376             3.90699
            0.407138            0.395983             3.90375
            0.417927            0.405866             3.89943
            0.426196             0.41341             3.89604
            0.430602            0.417418             3.89421
            0.438871            0.424918             3.89073
             0.44966            0.434659             3.88609
            0.457929            0.442091             3.88246
            0.462336             0.44604             3.88051
            0.470605            0.453425             3.87679
            0.481393            0.463015             3.87184
            0.489662            0.470328             3.86799
            0.494069            0.474212              3.8659
            0.502338            0.481476             3.86195
            0.513126            0.490903             3.85671
            0.521395            0.498091             3.85262
            0.525802            0.501907             3.85042
            0.534071            0.509042             3.84624
             0.54486            0.518298             3.84069
            0.553129            0.525352             3.83638
            0.557535            0.529096             3.83406
            0.565804            0.536095             3.82965
            0.576593            0.545171             3.82382
            0.584862            0.552084             3.81928
            0.589269            0.555753             3.81684
            0.597538            0.562608             3.81222
            0.608326            0.571495              3.8061
            0.616595            0.578261             3.80135
            0.621002             0.58185             3.79879
            0.629271            0.588555             3.79395
             0.64006            0.597243             3.78755
            0.648329            0.603855             3.78259
            0.652735            0.607362             3.77992
            0.661004             0.61391             3.77487
            0.671793             0.62239              3.7682
            0.680062            0.628841             3.76303
            0.684468            0.632261             3.76025
            0.692737            0.638646             3.75499
            0.703526            0.646911             3.74806
            0.711795            0.653194             3.74268
            0.716202            0.656524              3.7398
            0.724471            0.662739             3.73434
            0.735259            0.670779             3.72715
            0.743528            0.676889             3.72158
            0.747935            0.680126             3.71859
            0.756204            0.686165             3.71294
            0.766993            0.693973             3.70549
            0.775262            0.699903             3.69973
            0.779668            0.703043             3.69664
            0.787937              0.7089              3.6908
            0.798726            0.716468             3.68311
            0.806995            0.722212             3.67717
            0.811401            0.725253             3.67398
             0.81967            0.730921             3.66796
            0.830459            0.738241             3.66003
            0.838728            0.743794              3.6539
            0.843135            0.746732             3.65062
            0.851404            0.752206             3.64442
            0.862192            0.759271             3.63627
            0.870461            0.764626             3.62997
            0.874868            0.767459             3.62659
            0.883137            0.772734             3.62022
            0.893926            0.779537             3.61185
            0.902195            0.784689             3.60538
            0.906601            0.787413             3.60192
             0.91487            0.792483             3.59539
            0.925659            0.799017              3.5868
            0.933928            0.803962             3.58017
            0.938334            0.806575             3.57663
            0.946603            0.811435             3.56994
            0.957392            0.817693             3.56115
            0.965661            0.822425             3.55437
            0.970068            0.824924             3.55074
            0.978337             0.82957              3.5439
            0.989125            0.835546             3.53491
            0.997394             0.84006             3.52799
              1.0018            0.842443             3.52428
             1.01007            0.846869              3.5173
             1.02086            0.852557             3.50813
             1.02913             0.85685             3.50106
             1.03353            0.859113             3.49728
              1.0418            0.863316             3.49016
             1.05259             0.86871             3.48081
             1.06086            0.872776             3.47361
             1.06527            0.874918             3.46976
             1.07354            0.878893             3.46251
             1.08433            0.883988               3.453
             1.09259            0.887824             3.44568
               1.097            0.889843             3.44176
             1.10527            0.893585             3.43439
             1.11606            0.898376             3.42472
             1.12433            0.901977             3.41728
             1.12873            0.903871              3.4133
               1.137            0.907378             3.40581
             1.14779             0.91186               3.396
             1.15606            0.915223             3.38844
             1.16047             0.91699              3.3844
             1.16874            0.920257             3.37681
             1.17952            0.924425             3.36686
             1.18779            0.927547              3.3592
              1.1922            0.929185             3.35511
             1.20047            0.932209             3.34741
             1.21126            0.936059             3.33734
             1.21953            0.938937             3.32958
             1.22393            0.940444             3.32544
              1.2322            0.943223             3.31765
             1.24299            0.946751             3.30746
             1.25126            0.949381             3.29962
             1.25567            0.950756             3.29543
             1.26394            0.953287             3.28756
             1.27472             0.95649             3.27726
             1.28299             0.95887             3.26934
              1.2874            0.960111             3.26511
             1.29567            0.962391             3.25716
             1.30646            0.965266             3.24676
             1.31473            0.967393             3.23877
             1.31913              0.9685             3.23451
              1.3274            0.970526             3.22649
             1.33819            0.973069             3.21601
             1.34646            0.974942             3.20795
             1.35087            0.975913             3.20365
             1.35914            0.977683             3.19558
             1.36992            0.979893             3.18502
             1.37819            0.981509             3.17691
              1.3826            0.982343             3.17258
             1.39087            0.983857             3.16445
             1.40166             0.98573             3.15383
             1.40993            0.987088             3.14567
             1.41433            0.987785             3.14132
              1.4226            0.989039             3.13315
             1.43339            0.990575             3.12247
             1.44166            0.991673             3.11427
             1.44607            0.992231              3.1099
             1.45434            0.993226             3.10169
             1.46512            0.994422             3.09097
             1.47339             0.99526             3.08274
              1.4778            0.995679             3.07836
             1.48607            0.996413             3.07012
             1.49686            0.997268             3.05937
             1.50513            0.997845             3.05112
             1.50953            0.998124             3.04672
              1.5178            0.998596             3.03846
             1.52859            0.999109             3.02769
             1.53686            0.999424             3.01942
             1.54127            0.999564             3.01502
             1.54954            0.999774             3.00675
             1.56032            0.999945             2.99597
             1.56859            0.999998              2.9877
               1.573            0.999998             2.98329
             1.58127            0.999945             2.97502
             1.59206            0.999774             2.96423
             1.60033            0.999564             2.95597
             1.60473            0.999424             2.95156
               1.613            0.999109              2.9433
             1.62379            0.998596             2.93252
             1.63206            0.998124             2.92427
             1.63647            0.997845             2.91987
             1.64474            0.997268             2.91162
             1.65552            0.996413             2.90087
             1.66379            0.995679             2.89263
              1.6682             0.99526             2.88824
             1.67647            0.994422             2.88002
             1.68726            0.993226              2.8693
             1.69553            0.992231             2.86109
             1.69993            0.991673             2.85672
              1.7082            0.990575             2.84852
             1.71899            0.989039             2.83784
             1.72726            0.987785             2.82967
             1.73167            0.987088             2.82532
             1.73993             0.98573             2.81716
             1.75072            0.983857             2.80654
             1.75899            0.982343             2.79841
              1.7634            0.981509             2.79408
             1.77167            0.979893             2.78597
             1.78246            0.977683             2.77541
             1.79073            0.975913             2.76733
             1.79513            0.974942             2.76303
              1.8034            0.973069             2.75498
             1.81419            0.970526              2.7445
             1.82246              0.9685             2.73648
             1.82687            0.967393             2.73221
             1.83513            0.965266             2.72422
             1.84592            0.962391             2.71382
             1.85419            0.960111             2.70588
              1.8586             0.95887             2.70165
             1.86687             0.95649             2.69373
             1.87766            0.953287             2.68343
             1.88593            0.950756             2.67555
             1.89033            0.949381             2.67137
              1.8986            0.946751             2.66353
             1.90939            0.943223             2.65333
             1.91766            0.940444             2.64554
             1.92207            0.938937              2.6414
             1.93033            0.936059             2.63365
             1.94112            0.932209             2.62357
             1.94939            0.929185             2.61588
              1.9538            0.927547             2.61179
             1.96207            0.924425             2.60413
             1.97286            0.920257             2.59418
             1.98113             0.91699             2.58658
             1.98553            0.915223             2.58255
              1.9938             0.91186             2.57499
             2.00459            0.907378             2.56518
             2.01286            0.903871             2.55769
             2.01727            0.901977             2.55371
             2.02553            0.898376             2.54627
             2.03632            0.893585              2.5366
             2.04459            0.889843             2.52923
               2.049            0.887824             2.52531
             2.05727            0.883988             2.51798
             2.06806            0.878893             2.50847
             2.07633            0.874918             2.50122
             2.08073            0.872776             2.49737
               2.089             0.86871             2.49017
             2.09979            0.863316             2.48083
             2.10806            0.859113             2.47371
             2.11247             0.85685             2.46993
             2.12073            0.852557             2.46286
             2.13152            0.846869             2.45369
             2.13979            0.842443             2.44671
              2.1442             0.84006               2.443
             2.15247            0.835546             2.43607
             2.16326             0.82957             2.42709
             2.17152            0.824924             2.42025
             2.17593            0.822425             2.41662
              2.1842            0.817693             2.40984
             2.19499            0.811435             2.40105
             2.20326            0.806575             2.39436
             2.20766            0.803962             2.39081
             2.21593            0.799017             2.38419
             2.22672            0.792483              2.3756
             2.23499            0.787413             2.36907
              2.2394            0.784689              2.3656
             2.24767            0.779537             2.35914
             2.25846            0.772734             2.35076
             2.26672            0.767459              2.3444
             2.27113            0.764626             2.34102
              2.2794            0.759271             2.33472
             2.29019            0.752206             2.32657
             2.29846            0.746732             2.32037
             2.30286            0.743794             2.31708
             2.31113            0.738241             2.31096
             2.32192            0.730921             2.30303
             2.33019            0.725253             2.29701
              2.3346            0.722212             2.29382
             2.34287            0.716468             2.28787
             2.35366              0.7089             2.28018
             2.36192            0.703043             2.27435
             2.36633            0.699903             2.27126
              2.3746            0.693973             2.26549
             2.38539            0.686165             2.25805
             2.39366            0.680126              2.2524
             2.39806            0.676889             2.24941
             2.40633            0.670779             2.24384
             2.41712            0.662739             2.23664
             2.42539            0.656524             2.23119
              2.4298            0.653194              2.2283
             2.43807            0.646911             2.22293
             2.44886            0.638646             2.21599
             2.45712            0.632261             2.21074
             2.46153            0.628841             2.20796
              2.4698             0.62239             2.20279
             2.48059             0.61391             2.19612
             2.48886            0.607362             2.19107
             2.49326            0.603855              2.1884
             2.50153            0.597243             2.18343
             2.51232            0.588555             2.17704
             2.52059             0.58185              2.1722
               2.525            0.578261             2.16964
             2.53327            0.571495             2.16489
             2.54406            0.562608             2.15877
             2.55232            0.555753             2.15415
             2.55673            0.552084             2.15171
               2.565            0.545171             2.14717
