               Theta              Radial            Vertical
          0.00110165          0.00110165            -6.38467
          0.00523614          0.00523611            -6.38469
           0.0106305           0.0106303            -6.38473
            0.014765           0.0147644            -6.38478
           0.0180699           0.0180689            -6.38484
           0.0263389           0.0263359            -6.38502
           0.0371276           0.0371191            -6.38536
           0.0453966            0.045381             -6.3857
           0.0498032           0.0497826            -6.38591
           0.0580722           0.0580395            -6.38636
           0.0688609           0.0688065            -6.38704
           0.0771298           0.0770534            -6.38765
           0.0815364           0.0814461              -6.388
           0.0898054           0.0896848             -6.3887
            0.100594            0.100425            -6.38973
            0.108863            0.108648            -6.39059
             0.11327            0.113028            -6.39108
            0.121539             0.12124            -6.39205
            0.132327            0.131942            -6.39342
            0.140596            0.140134            -6.39454
            0.145003            0.144495            -6.39517
            0.153272            0.152673             -6.3964
            0.164061            0.163326             -6.3981
             0.17233            0.171478            -6.39949
            0.176736            0.175818            -6.40025
            0.185005            0.183952            -6.40174
            0.195794            0.194545            -6.40378
            0.204063             0.20265            -6.40542
            0.208469            0.206963            -6.40632
            0.216738            0.215046            -6.40807
            0.227527            0.225569            -6.41045
            0.235796            0.233617            -6.41235
            0.240203              0.2379            -6.41338
            0.248472            0.245923            -6.41538
             0.25926            0.256366            -6.41809
            0.267529             0.26435            -6.42025
            0.271936            0.268597            -6.42142
            0.280205            0.276553            -6.42367
            0.290994            0.286904            -6.42671
            0.299263            0.294816            -6.42912
            0.303669            0.299024            -6.43043
            0.311938            0.306904            -6.43293
            0.322727            0.317154             -6.4363
            0.330996            0.324985            -6.43895
            0.335403            0.329149             -6.4404
            0.343671            0.336946            -6.44315
             0.35446            0.347084            -6.44684
            0.362729            0.354827            -6.44974
            0.367136            0.358944            -6.45131
            0.375405            0.366649            -6.45431
            0.386193            0.376665            -6.45832
            0.394462            0.384312            -6.46147
            0.398869            0.388376            -6.46317
            0.407138            0.395983            -6.46642
            0.417927            0.405866            -6.47074
            0.426196             0.41341            -6.47413
            0.430602            0.417418            -6.47596
            0.438871            0.424918            -6.47944
             0.44966            0.434659            -6.48408
            0.457929            0.442091             -6.4877
            0.462336             0.44604            -6.48966
            0.470605            0.453425            -6.49338
            0.481393            0.463015            -6.49832
            0.489662            0.470328            -6.50218
            0.494069            0.474212            -6.50426
            0.502338            0.481476            -6.50821
            0.513126            0.490903            -6.51346
            0.521395            0.498091            -6.51755
            0.525802            0.501907            -6.51975
            0.534071            0.509042            -6.52393
             0.54486            0.518298            -6.52947
            0.553129            0.525352            -6.53379
            0.557535            0.529096            -6.53611
            0.565804            0.536095            -6.54052
            0.576593            0.545171            -6.54635
            0.584862            0.552084            -6.55089
            0.589269            0.555753            -6.55333
            0.597538            0.562608            -6.55795
            0.608326            0.571495            -6.56407
            0.616595            0.578261            -6.56882
            0.621002             0.58185            -6.57138
            0.629271            0.588555            -6.57622
             0.64006            0.597243            -6.58261
            0.648329            0.603855            -6.58758
            0.652735            0.607362            -6.59025
            0.661004             0.61391             -6.5953
            0.671793             0.62239            -6.60197
            0.680062            0.628841            -6.60714
            0.684468            0.632261            -6.60992
            0.692737            0.638646            -6.61517
            0.703526            0.646911            -6.62211
            0.711795            0.653194            -6.62748
            0.716202            0.656524            -6.63037
            0.724471            0.662739            -6.63582
            0.735259            0.670779            -6.64302
            0.743528            0.676889            -6.64859
            0.747935            0.680126            -6.65158
            0.756204            0.686165            -6.65723
            0.766993            0.693973            -6.66467
            0.775262            0.699903            -6.67044
            0.779668            0.703043            -6.67353
            0.787937              0.7089            -6.67936
            0.798726            0.716468            -6.68705
            0.806995            0.722212              -6.693
            0.811401            0.725253            -6.69619
             0.81967            0.730921            -6.70221
            0.830459            0.738241            -6.71014
            0.838728            0.743794            -6.71626
            0.843135            0.746732            -6.71955
            0.851404            0.752206            -6.72575
            0.862192            0.759271             -6.7339
            0.870461            0.764626             -6.7402
            0.874868            0.767459            -6.74358
            0.883137            0.772734            -6.74994
            0.893926            0.779537            -6.75832
            0.902195            0.784689            -6.76478
            0.906601            0.787413            -6.76825
             0.91487            0.792483            -6.77478
            0.925659            0.799017            -6.78337
            0.933928            0.803962            -6.78999
            0.938334            0.806575            -6.79354
            0.946603            0.811435            -6.80023
            0.957392            0.817693            -6.80902
            0.965661            0.822425             -6.8158
            0.970068            0.824924            -6.81943
            0.978337             0.82957            -6.82627
            0.989125            0.835546            -6.83525
            0.997394             0.84006            -6.84218
              1.0018            0.842443            -6.84589
             1.01007            0.846869            -6.85287
             1.02086            0.852557            -6.86204
             1.02913             0.85685            -6.86911
             1.03353            0.859113            -6.87289
              1.0418            0.863316            -6.88001
             1.05259             0.86871            -6.88935
             1.06086            0.872776            -6.89655
             1.06527            0.874918             -6.9004
             1.07354            0.878893            -6.90765
             1.08433            0.883988            -6.91716
             1.09259            0.887824            -6.92449
               1.097            0.889843            -6.92841
             1.10527            0.893585            -6.93578
             1.11606            0.898376            -6.94545
             1.12433            0.901977            -6.95289
             1.12873            0.903871            -6.95687
               1.137            0.907378            -6.96436
             1.14779             0.91186            -6.97417
             1.15606            0.915223            -6.98173
             1.16047             0.91699            -6.98576
             1.16874            0.920257            -6.99336
             1.17952            0.924425            -7.00331
             1.18779            0.927547            -7.01097
              1.1922            0.929185            -7.01506
             1.20047            0.932209            -7.02275
             1.21126            0.936059            -7.03283
             1.21953            0.938937            -7.04058
             1.22393            0.940444            -7.04472
              1.2322            0.943223            -7.05251
             1.24299            0.946751            -7.06271
             1.25126            0.949381            -7.07055
             1.25567            0.950756            -7.07473
             1.26394            0.953287            -7.08261
             1.27472             0.95649            -7.09291
             1.28299             0.95887            -7.10083
              1.2874            0.960111            -7.10506
             1.29567            0.962391              -7.113
             1.30646            0.965266             -7.1234
             1.31473            0.967393            -7.13139
             1.31913              0.9685            -7.13566
              1.3274            0.970526            -7.14368
             1.33819            0.973069            -7.15416
             1.34646            0.974942            -7.16221
             1.35087            0.975913            -7.16651
             1.35914            0.977683            -7.17459
             1.36992            0.979893            -7.18515
             1.37819            0.981509            -7.19326
              1.3826            0.982343            -7.19759
             1.39087            0.983857            -7.20572
             1.40166             0.98573            -7.21634
             1.40993            0.987088             -7.2245
             1.41433            0.987785            -7.22885
              1.4226            0.989039            -7.23702
             1.43339            0.990575             -7.2477
             1.44166            0.991673             -7.2559
             1.44607            0.992231            -7.26027
             1.45434            0.993226            -7.26848
             1.46512            0.994422             -7.2792
             1.47339             0.99526            -7.28742
              1.4778            0.995679            -7.29181
             1.48607            0.996413            -7.30005
             1.49686            0.997268             -7.3108
             1.50513            0.997845            -7.31905
             1.50953            0.998124            -7.32345
              1.5178            0.998596             -7.3317
             1.52859            0.999109            -7.34248
             1.53686            0.999424            -7.35074
             1.54127            0.999564            -7.35515
             1.54954            0.999774            -7.36341
             1.56032            0.999945             -7.3742
             1.56859            0.999998            -7.38247
               1.573            0.999998            -7.38688
             1.58127            0.999945            -7.39515
             1.59206            0.999774            -7.40593
             1.60033            0.999564             -7.4142
             1.60473            0.999424             -7.4186
               1.613            0.999109            -7.42687
             1.62379            0.998596            -7.43764
             1.63206            0.998124             -7.4459
             1.63647            0.997845             -7.4503
             1.64474            0.997268            -7.45855
             1.65552            0.996413             -7.4693
             1.66379            0.995679            -7.47754
              1.6682             0.99526            -7.48192
             1.67647            0.994422            -7.49015
             1.68726            0.993226            -7.50087
             1.69553            0.992231            -7.50908
             1.69993            0.991673            -7.51345
              1.7082            0.990575            -7.52165
             1.71899            0.989039            -7.53233
             1.72726            0.987785             -7.5405
             1.73167            0.987088            -7.54485
             1.73993             0.98573            -7.55301
             1.75072            0.983857            -7.56363
             1.75899            0.982343            -7.57176
              1.7634            0.981509            -7.57609
             1.77167            0.979893             -7.5842
             1.78246            0.977683            -7.59476
             1.79073            0.975913            -7.60283
             1.79513            0.974942            -7.60713
              1.8034            0.973069            -7.61519
             1.81419            0.970526            -7.62567
             1.82246              0.9685            -7.63369
             1.82687            0.967393            -7.63795
             1.83513            0.965266            -7.64594
             1.84592            0.962391            -7.65634
             1.85419            0.960111            -7.66429
              1.8586             0.95887            -7.66852
             1.86687             0.95649            -7.67644
             1.87766            0.953287            -7.68674
             1.88593            0.950756            -7.69461
             1.89033            0.949381             -7.6988
              1.8986            0.946751            -7.70664
             1.90939            0.943223            -7.71683
             1.91766            0.940444            -7.72462
             1.92207            0.938937            -7.72876
             1.93033            0.936059            -7.73652
             1.94112            0.932209            -7.74659
             1.94939            0.929185            -7.75429
              1.9538            0.927547            -7.75838
             1.96207            0.924425            -7.76604
             1.97286            0.920257            -7.77599
             1.98113             0.91699            -7.78358
             1.98553            0.915223            -7.78762
              1.9938             0.91186            -7.79518
             2.00459            0.907378            -7.80499
             2.01286            0.903871            -7.81248
             2.01727            0.901977            -7.81646
             2.02553            0.898376             -7.8239
             2.03632            0.893585            -7.83357
             2.04459            0.889843            -7.84094
               2.049            0.887824            -7.84486
             2.05727            0.883988            -7.85218
             2.06806            0.878893            -7.86169
             2.07633            0.874918            -7.86894
             2.08073            0.872776            -7.87279
               2.089             0.86871            -7.87999
             2.09979            0.863316            -7.88934
             2.10806            0.859113            -7.89646
             2.11247             0.85685            -7.90024
             2.12073            0.852557            -7.90731
             2.13152            0.846869            -7.91648
             2.13979            0.842443            -7.92346
              2.1442             0.84006            -7.92717
             2.15247            0.835546            -7.93409
             2.16326             0.82957            -7.94308
             2.17152            0.824924            -7.94992
             2.17593            0.822425            -7.95355
              2.1842            0.817693            -7.96033
             2.19499            0.811435            -7.96912
             2.20326            0.806575            -7.97581
             2.20766            0.803962            -7.97935
             2.21593            0.799017            -7.98598
             2.22672            0.792483            -7.99457
             2.23499            0.787413             -8.0011
              2.2394            0.784689            -8.00456
             2.24767            0.779537            -8.01103
             2.25846            0.772734             -8.0194
             2.26672            0.767459            -8.02577
             2.27113            0.764626            -8.02915
              2.2794            0.759271            -8.03545
             2.29019            0.752206             -8.0436
             2.29846            0.746732             -8.0498
             2.30286            0.743794            -8.05308
             2.31113            0.738241            -8.05921
             2.32192            0.730921            -8.06714
             2.33019            0.725253            -8.07316
              2.3346            0.722212            -8.07635
             2.34287            0.716468            -8.08229
             2.35366              0.7089            -8.08998
             2.36192            0.703043            -8.09582
             2.36633            0.699903            -8.09891
              2.3746            0.693973            -8.10467
             2.38539            0.686165            -8.11212
             2.39366            0.680126            -8.11777
             2.39806            0.676889            -8.12076
             2.40633            0.670779            -8.12633
             2.41712            0.662739            -8.13352
             2.42539            0.656524            -8.13898
              2.4298            0.653194            -8.14186
             2.43807            0.646911            -8.14724
             2.44886            0.638646            -8.15417
             2.45712            0.632261            -8.15943
             2.46153            0.628841            -8.16221
              2.4698             0.62239            -8.16738
             2.48059             0.61391            -8.17405
             2.48886            0.607362             -8.1791
             2.49326            0.603855            -8.18177
             2.50153            0.597243            -8.18673
             2.51232            0.588555            -8.19313
             2.52059             0.58185            -8.19797
               2.525            0.578261            -8.20053
             2.53327            0.571495            -8.20528
             2.54406            0.562608             -8.2114
             2.55232            0.555753            -8.21602
             2.55673            0.552084            -8.21846
               2.565            0.545171              -8.223
